#wavelength pix
7642.02 476
7802.63 644
7887.40 731
7967.36 814
8231.64 1091
8266.53 1127
8280.12 1141
8346.82 1211
8409.19 1277
8739.39 1628
8819.41 1714
8862.32 1759
8908.71 1810
8930.83 1833
8952.25 1857
8987.57 1895
9045.45 1958
9162.65 2085
9374.75 2318
9513.38 2472
